Time,a_x,s_x,s_x_int,omega,T_corrected,T_request
0,-0.0047851,0,0,9.9206,0,14.722
0.001,-0.0056589,-0.00092408,-0.00013889,9.9173,0,14.722
0.002,-0.008131,-0.0017393,-0.00027866,9.9144,0,14.722
0.003,-0.011966,-0.0024311,-0.0004192,9.9119,0,14.722
0.004,-0.01692,-0.0029881,-0.00056039,9.9098,0,14.722
0.005,-0.022741,-0.0034019,-0.00070212,9.9083,0,14.722
0.006,-0.029177,-0.0036673,-0.00084424,9.9072,0,14.722
0.007,-0.035983,-0.003782,-0.00098661,9.9067,0,14.722
0.008,-0.042918,-0.0037466,-0.0011291,9.9067,0,14.722
0.009,-0.049757,-0.0035646,-0.0012715,9.9072,0,14.722
0.01,-0.056286,-0.0032418,-0.0014138,9.9082,0,14.722
0.011,-0.062312,-0.0027865,-0.0015557,9.9096,0,14.722
0.012,-0.06766,-0.0022087,-0.0016973,9.9114,0,14.722
0.013,-0.07218,-0.0015204,-0.0018382,9.9136,0,14.722
0.014,-0.075742,-0.00073484,-0.0019785,9.9161,0,14.722
0.015,-0.078242,0.00013353,-0.0021181,9.919,0,14.722
0.016,-0.079602,0.0010696,-0.0022568,9.922,0,14.722
0.017,-0.079768,0.0020577,-0.0023947,9.9253,0,14.722
0.018,-0.078709,0.0030821,-0.0025316,9.9287,0,14.722
0.019,-0.076419,0.0041273,-0.0026675,9.9321,0,14.722
0.02,-0.072916,0.0051781,-0.0028024,9.9356,0,14.722
0.021,-0.068236,0.00622,-0.0029363,9.9391,0,14.722
0.022,-0.062434,0.0072394,-0.0030693,9.9425,0,14.722
0.023,-0.055584,0.008224,-0.0032012,9.9458,0,14.722
0.024,-0.047772,0.0091626,-0.0033322,9.9489,0,14.722
0.025,-0.039097,0.010045,-0.0034624,9.9519,0,14.722
0.026,-0.029668,0.010864,-0.0035916,9.9547,0,14.722
0.027,-0.019599,0.011613,-0.0037201,9.9573,0,14.722
0.028,-0.0090092,0.012286,-0.0038479,9.9597,0,14.722
0.029,0.0019797,0.01288,-0.0039751,9.9618,0,14.722
0.03,0.013247,0.013393,-0.0041017,9.9637,0,14.722
0.031,0.024674,0.013826,-0.0042278,9.9653,0,14.722
0.032,0.036139,0.014156,-0.0043534,9.9665,0,14.722
0.033,0.047475,0.014333,-0.0044788,9.9673,0,14.722
0.034,0.058496,0.014359,-0.004604,9.9676,0,14.722
0.035,0.069031,0.01424,-0.0047292,9.9674,0,14.722
0.036,0.078925,0.013985,-0.0048545,9.9668,0,14.722
0.037,0.088045,0.013607,-0.0049801,9.9657,0,14.722
0.038,0.096273,0.013117,-0.005106,9.9643,0,14.722
0.039,0.10352,0.01253,-0.0052324,9.9626,0,14.722
0.04,0.10971,0.011861,-0.0053593,9.9606,0,14.722
0.041,0.11479,0.011127,-0.0054869,9.9583,0,14.722
0.042,0.11874,0.010343,-0.0056152,9.9559,0,14.722
0.043,0.12154,0.0095264,-0.0057442,9.9535,0,14.722
0.044,0.12323,0.0086935,-0.0058741,9.9509,0,14.722
0.045,0.12382,0.0078601,-0.0060047,9.9484,0,14.722
0.046,0.12338,0.0070411,-0.0061361,9.9459,0,14.722
0.047,0.12198,0.0062505,-0.0062683,9.9435,0,14.722
0.048,0.11968,0.0055012,-0.0064013,9.9413,0,14.722
0.049,0.1166,0.0048046,-0.0065349,9.9392,0,14.722
0.05,0.11284,0.0041704,-0.0066693,9.9374,0,14.722
0.051,0.10851,0.003607,-0.0068042,9.9357,0,14.722
0.052,0.10372,0.0031208,-0.0069397,9.9344,0,14.722
0.053,0.098588,0.0027164,-0.0070757,9.9333,0,14.722
0.054,0.09324,0.0023969,-0.007212,9.9325,0,14.722
0.055,0.087786,0.0021636,-0.0073487,9.932,0,14.722
0.056,0.082337,0.0020162,-0.0074856,9.9318,0,14.722
0.057,0.076996,0.0019525,-0.0076226,9.9318,0,14.722
0.058,0.07186,0.0019695,-0.0077597,9.9322,0,14.722
0.059,0.067013,0.0020623,-0.0078968,9.9327,0,14.722
0.06,0.062533,0.0022253,-0.0080338,9.9335,0,14.722
0.061,0.058483,0.0024517,-0.0081706,9.9346,0,14.722
0.062,0.054915,0.002734,-0.0083072,9.9358,0,14.722
0.063,0.051871,0.003064,-0.0084436,9.9371,0,14.722
0.064,0.049379,0.0034331,-0.0085797,9.9386,0,14.722
0.065,0.047455,0.0038326,-0.0087154,9.9402,0,14.722
0.066,0.046104,0.0042535,-0.0088507,9.9419,0,14.722
0.067,0.045318,0.004687,-0.0089856,9.9436,0,14.722
0.068,0.045083,0.0051246,-0.0091202,9.9454,0,14.722
0.069,0.045371,0.005558,-0.0092543,9.9471,0,14.722
0.07,0.046148,0.0059797,-0.009388,9.9487,0,14.722
0.071,0.047373,0.0063825,-0.0095213,9.9503,0,14.722
0.072,0.048998,0.0067602,-0.0096542,9.9519,0,14.722
0.073,0.050969,0.0071072,-0.0097868,9.9533,0,14.722
0.074,0.053232,0.007419,-0.009919,9.9546,0,14.722
0.075,0.055727,0.0076916,-0.010051,9.9557,0,14.722
0.076,0.058395,0.0079223,-0.010183,9.9568,0,14.722
0.077,0.061177,0.0081091,-0.010314,9.9576,0,14.722
0.078,0.064013,0.0082509,-0.010445,9.9584,0,14.722
0.079,0.066849,0.0083477,-0.010577,9.959,0,14.722
0.08,0.069631,0.0084,-0.010708,9.9594,0,14.722
0.081,0.072309,0.0084092,-0.010839,9.9597,0,14.722
0.082,0.07484,0.0083775,-0.01097,9.9598,0,14.722
0.083,0.077183,0.0083076,-0.011101,9.9598,0,14.722
0.084,0.079305,0.0082029,-0.011232,9.9598,0,14.722
0.085,0.081177,0.008067,-0.011363,9.9596,0,14.722
0.086,0.082779,0.0079042,-0.011495,9.9593,0,14.722
0.087,0.084094,0.0077187,-0.011626,9.9589,0,14.722
0.088,0.085113,0.0075153,-0.011758,9.9585,0,14.722
0.089,0.085833,0.0072984,-0.01189,9.958,0,14.722
0.09,0.086256,0.0070729,-0.012022,9.9575,0,14.722
0.091,0.08639,0.0068431,-0.012154,9.957,0,14.722
0.092,0.086248,0.0066136,-0.012287,9.9565,0,14.722
0.093,0.085847,0.0063885,-0.012419,9.956,0,14.722
0.094,0.085209,0.0061717,-0.012552,9.9555,0,14.722
0.095,0.084358,0.0059666,-0.012686,9.9551,0,14.722
0.096,0.083321,0.0057763,-0.012819,9.9547,0,14.722
0.097,0.082129,0.0056036,-0.012953,9.9544,0,14.722
0.098,0.080811,0.0054505,-0.013086,9.9541,0,14.722
0.099,0.0794,0.005319,-0.01322,9.954,0,14.722
0.1,0.077926,0.00521,-0.013354,9.9538,0,14.722
0.101,0.076422,0.0051246,-0.013488,9.9538,0,14.722
0.102,0.074917,0.0050629,-0.013623,9.9539,0,14.722
0.103,0.073439,0.0050247,-0.013757,9.954,0,14.722
0.104,0.072016,0.0050096,-0.013891,9.9542,0,14.722
0.105,0.07067,0.0050165,-0.014026,9.9545,0,14.722
0.106,0.069423,0.0050441,-0.01416,9.9548,0,14.722
0.107,0.068294,0.0050908,-0.014294,9.9552,0,14.722
0.108,0.067298,0.0051548,-0.014429,9.9557,0,14.722
0.109,0.066446,0.0052338,-0.014563,9.9562,0,14.722
0.11,0.065748,0.0053258,-0.014697,9.9568,0,14.722
0.111,0.065207,0.0054282,-0.014831,9.9574,0,14.722
0.112,0.064826,0.0055387,-0.014965,9.958,0,14.722
0.113,0.064604,0.0056548,-0.015099,9.9587,0,14.722
0.114,0.064537,0.0057742,-0.015233,9.9593,0,14.722
0.115,0.064619,0.0058944,-0.015366,9.96,0,14.722
0.116,0.064838,0.0060132,-0.0155,9.9606,0,14.722
0.117,0.065186,0.0061286,-0.015633,9.9613,0,14.722
0.118,0.065648,0.0062386,-0.015767,9.9619,0,14.722
0.119,0.06621,0.0063416,-0.0159,9.9625,0,14.722
0.12,0.066856,0.0064359,-0.016033,9.9631,0,14.722
0.121,0.067571,0.0065205,-0.016166,9.9636,0,14.722
0.122,0.068336,0.0065943,-0.016299,9.9641,0,14.722
0.123,0.069136,0.0066565,-0.016432,9.9646,0,14.722
0.124,0.069953,0.0067066,-0.016565,9.965,0,14.722
0.125,0.070772,0.0067445,-0.016698,9.9654,0,14.722
0.126,0.071576,0.0067699,-0.01683,9.9658,0,14.722
0.127,0.072353,0.0067833,-0.016963,9.9661,0,14.722
0.128,0.073089,0.006785,-0.017096,9.9663,0,14.722
0.129,0.073771,0.0067755,-0.017229,9.9666,0,14.722
0.13,0.074391,0.0067557,-0.017361,9.9668,0,14.722
0.131,0.07494,0.0067266,-0.017494,9.9669,0,14.722
0.132,0.075411,0.0066891,-0.017627,9.9671,0,14.722
0.133,0.0758,0.0066444,-0.01776,9.9672,0,14.722
0.134,0.076103,0.0065937,-0.017893,9.9673,0,14.722
0.135,0.076319,0.0065383,-0.018026,9.9673,0,14.722
0.136,0.076448,0.0064793,-0.018159,9.9674,0,14.722
0.137,0.076493,0.0064182,-0.018292,9.9674,0,14.722
0.138,0.076456,0.0063562,-0.018425,9.9675,0,14.722
0.139,0.076344,0.0062943,-0.018558,9.9675,0,14.722
0.14,0.07616,0.0062338,-0.018691,9.9676,0,14.722
0.141,0.075913,0.0061757,-0.018825,9.9677,0,14.722
0.142,0.075611,0.0061209,-0.018958,9.9677,0,14.722
0.143,0.07526,0.0060703,-0.019091,9.9678,0,14.722
0.144,0.074871,0.0060245,-0.019225,9.9679,0,14.722
0.145,0.074453,0.0059841,-0.019358,9.9681,0,14.722
0.146,0.074014,0.0059496,-0.019492,9.9682,0,14.722
0.147,0.073564,0.0059212,-0.019626,9.9684,0,14.722
0.148,0.073111,0.0058992,-0.019759,9.9685,0,14.722
0.149,0.072665,0.0058836,-0.019893,9.9688,0,14.722
0.15,0.072232,0.0058744,-0.020027,9.969,0,14.722
0.151,0.07182,0.0058714,-0.02016,9.9692,0,14.722
0.152,0.071437,0.0058743,-0.020294,9.9695,0,14.722
0.153,0.071086,0.0058826,-0.020428,9.9698,0,14.722
0.154,0.070774,0.0058961,-0.020561,9.9701,0,14.722
0.155,0.070503,0.0059141,-0.020695,9.9704,0,14.722
0.156,0.070277,0.0059361,-0.020829,9.9707,0,14.722
0.157,0.070098,0.0059614,-0.020962,9.9711,0,14.722
0.158,0.069966,0.0059895,-0.021096,9.9714,0,14.722
0.159,0.069882,0.0060196,-0.02123,9.9718,0,14.722
0.16,0.069844,0.0060511,-0.021363,9.9721,0,14.722
0.161,0.069852,0.0060834,-0.021497,9.9725,0,14.722
0.162,0.069902,0.0061157,-0.02163,9.9729,0,14.722
0.163,0.069992,0.0061476,-0.021764,9.9732,0,14.722
0.164,0.070118,0.0061784,-0.021897,9.9736,0,14.722
0.165,0.070276,0.0062077,-0.022031,9.9739,0,14.722
0.166,0.070461,0.006235,-0.022164,9.9743,0,14.722
0.167,0.070669,0.0062599,-0.022297,9.9746,0,14.722
0.168,0.070894,0.0062821,-0.022431,9.975,0,14.722
0.169,0.071133,0.0063013,-0.022564,9.9753,0,14.722
0.17,0.071379,0.0063174,-0.022698,9.9756,0,14.722
0.171,0.071628,0.0063302,-0.022831,9.9759,0,14.722
0.172,0.071875,0.0063397,-0.022964,9.9762,0,14.722
0.173,0.072116,0.0063458,-0.023098,9.9765,0,14.722
0.174,0.072347,0.0063488,-0.023231,9.9767,0,14.722
0.175,0.072564,0.0063486,-0.023364,9.977,0,14.722
0.176,0.072764,0.0063455,-0.023498,9.9772,0,14.722
0.177,0.072944,0.0063396,-0.023631,9.9775,0,14.722
0.178,0.073102,0.0063313,-0.023764,9.9777,0,14.722
0.179,0.073236,0.0063208,-0.023898,9.9779,0,14.722
0.18,0.073345,0.0063085,-0.024031,9.9782,0,14.722
0.181,0.073429,0.0062947,-0.024164,9.9784,0,14.722
0.182,0.073486,0.0062796,-0.024298,9.9786,0,14.722
0.183,0.073517,0.0062638,-0.024431,9.9788,0,14.722
0.184,0.073524,0.0062474,-0.024565,9.979,0,14.722
0.185,0.073507,0.0062309,-0.024698,9.9792,0,14.722
0.186,0.073467,0.0062145,-0.024832,9.9794,0,14.722
0.187,0.073407,0.0061986,-0.024965,9.9796,0,14.722
0.188,0.073329,0.0061833,-0.025099,9.9798,0,14.722
0.189,0.073234,0.0061691,-0.025232,9.98,0,14.722
0.19,0.073126,0.006156,-0.025366,9.9802,0,14.722
0.191,0.073007,0.0061443,-0.025499,9.9805,0,14.722
0.192,0.07288,0.0061341,-0.025633,9.9807,0,14.722
0.193,0.072748,0.0061255,-0.025766,9.9809,0,14.722
0.194,0.072612,0.0061185,-0.0259,9.9811,0,14.722
0.195,0.072477,0.0061133,-0.026034,9.9814,0,14.722
0.196,0.072343,0.0061098,-0.026167,9.9816,0,14.722
0.197,0.072214,0.0061081,-0.026301,9.9819,0,14.722
0.198,0.072092,0.0061079,-0.026435,9.9821,0,14.722
0.199,0.071978,0.0061094,-0.026568,9.9824,0,14.722
0.2,0.071874,0.0061122,-0.026702,9.9827,0,14.722
0.201,0.071781,0.0061164,-0.026835,9.9829,0,14.722
0.202,0.071701,0.0061218,-0.026969,9.9832,0,14.722
0.203,0.071633,0.0061282,-0.027103,9.9835,0,14.722
0.204,0.07158,0.0061354,-0.027236,9.9838,0,14.722
0.205,0.071541,0.0061433,-0.02737,9.9841,0,14.722
0.206,0.071515,0.0061517,-0.027504,9.9843,0,14.722
0.207,0.071504,0.0061604,-0.027637,9.9846,0,14.722
0.208,0.071505,0.0061693,-0.027771,9.9849,0,14.722
0.209,0.071519,0.0061781,-0.027905,9.9852,0,14.722
0.21,0.071544,0.0061867,-0.028038,9.9855,0,14.722
0.211,0.07158,0.006195,-0.028172,9.9858,0,14.722
0.212,0.071626,0.0062028,-0.028305,9.9861,0,14.722
0.213,0.071679,0.0062101,-0.028439,9.9863,0,14.722
0.214,0.071739,0.0062166,-0.028573,9.9866,0,14.722
0.215,0.071804,0.0062224,-0.028706,9.9869,0,14.722
0.216,0.071873,0.0062274,-0.02884,9.9872,0,14.722
0.217,0.071944,0.0062315,-0.028973,9.9874,0,14.722
0.218,0.072016,0.0062347,-0.029107,9.9877,0,14.722
0.219,0.072088,0.006237,-0.029241,9.988,0,14.722
0.22,0.072158,0.0062384,-0.029374,9.9882,0,14.722
0.221,0.072225,0.0062389,-0.029508,9.9885,0,14.722
0.222,0.072288,0.0062386,-0.029641,9.9888,0,14.722
0.223,0.072347,0.0062376,-0.029775,9.989,0,14.722
0.224,0.0724,0.0062358,-0.029909,9.9893,0,14.722
0.225,0.072446,0.0062334,-0.030042,9.9895,0,14.722
0.226,0.072486,0.0062304,-0.030176,9.9898,0,14.722
0.227,0.072519,0.0062269,-0.030309,9.99,0,14.722
0.228,0.072544,0.0062231,-0.030443,9.9902,0,14.722
0.229,0.072562,0.006219,-0.030577,9.9905,0,14.722
0.23,0.072573,0.0062148,-0.03071,9.9907,0,14.722
0.231,0.072576,0.0062104,-0.030844,9.991,0,14.722
0.232,0.072573,0.006206,-0.030978,9.9912,0,14.722
0.233,0.072563,0.0062017,-0.031111,9.9915,0,14.722
0.234,0.072548,0.0061975,-0.031245,9.9917,0,14.722
0.235,0.072527,0.0061936,-0.031379,9.992,0,14.722
0.236,0.072501,0.00619,-0.031512,9.9922,0,14.722
0.237,0.072472,0.0061867,-0.031646,9.9925,0,14.722
0.238,0.072439,0.0061838,-0.03178,9.9927,0,14.722
0.239,0.072404,0.0061813,-0.031914,9.9929,0,14.722
0.24,0.072367,0.0061793,-0.032047,9.9932,0,14.722
0.241,0.072329,0.0061777,-0.032181,9.9935,0,14.722
0.242,0.072291,0.0061766,-0.032315,9.9937,0,14.722
0.243,0.072254,0.006176,-0.032448,9.994,0,14.722
0.244,0.072217,0.0061759,-0.032582,9.9942,0,14.722
0.245,0.072183,0.0061762,-0.032716,9.9945,0,14.722
0.246,0.07215,0.0061769,-0.03285,9.9947,0,14.722
0.247,0.07212,0.006178,-0.032983,9.995,0,14.722
0.248,0.072093,0.0061794,-0.033117,9.9953,0,14.722
0.249,0.07207,0.0061812,-0.033251,9.9955,0,14.722
0.25,0.07205,0.0061832,-0.033385,9.9958,0,14.722
0.251,0.072034,0.0061854,-0.033518,9.9961,0,14.722
0.252,0.072022,0.0061877,-0.033652,9.9963,0,14.722
0.253,0.072013,0.0061902,-0.033786,9.9966,0,14.722
0.254,0.072009,0.0061928,-0.03392,9.9969,0,14.722
0.255,0.072008,0.0061953,-0.034053,9.9971,0,14.722
0.256,0.07201,0.0061979,-0.034187,9.9974,0,14.722
0.257,0.072016,0.0062003,-0.034321,9.9977,0,14.722
0.258,0.072024,0.0062027,-0.034455,9.9979,0,14.722
0.259,0.072036,0.0062049,-0.034589,9.9982,0,14.722
0.26,0.072049,0.0062069,-0.034722,9.9985,0,14.722
0.261,0.072065,0.0062088,-0.034856,9.9987,0,14.722
0.262,0.072081,0.0062104,-0.03499,9.999,0,14.722
0.263,0.0721,0.0062118,-0.035124,9.9992,0,14.722
0.264,0.072118,0.0062129,-0.035257,9.9995,0,14.722
0.265,0.072137,0.0062138,-0.035391,9.9998,0,14.722
0.266,0.072156,0.0062144,-0.035525,10,0,14.722
0.267,0.072175,0.0062148,-0.035659,10,0,14.722
0.268,0.072193,0.006215,-0.035793,10.001,0,14.722
0.269,0.07221,0.0062149,-0.035926,10.001,0,14.722
0.27,0.072226,0.0062146,-0.03606,10.001,0,14.722
0.271,0.07224,0.0062142,-0.036194,10.001,0,14.722
0.272,0.072253,0.0062135,-0.036328,10.002,0,14.722
0.273,0.072264,0.0062127,-0.036462,10.002,0,14.722
0.274,0.072273,0.0062118,-0.036595,10.002,0,14.722
0.275,0.07228,0.0062109,-0.036729,10.002,0,14.722
0.276,0.072285,0.0062098,-0.036863,10.003,0,14.722
0.277,0.072289,0.0062087,-0.036997,10.003,0,14.722
0.278,0.07229,0.0062076,-0.037131,10.003,0,14.722
0.279,0.07229,0.0062065,-0.037264,10.003,0,14.722
0.28,0.072287,0.0062054,-0.037398,10.004,0,14.722
0.281,0.072284,0.0062044,-0.037532,10.004,0,14.722
0.282,0.072278,0.0062034,-0.037666,10.004,0,14.722
0.283,0.072272,0.0062026,-0.0378,10.004,0,14.722
0.284,0.072264,0.0062018,-0.037934,10.005,0,14.722
0.285,0.072256,0.0062012,-0.038068,10.005,0,14.722
0.286,0.072247,0.0062006,-0.038201,10.005,0,14.722
0.287,0.072237,0.0062002,-0.038335,10.005,0,14.722
0.288,0.072227,0.0062,-0.038469,10.006,0,14.722
0.289,0.072217,0.0061998,-0.038603,10.006,0,14.722
0.29,0.072207,0.0061998,-0.038737,10.006,0,14.722
0.291,0.072198,0.0062,-0.038871,10.006,0,14.722
0.292,0.072189,0.0062002,-0.039005,10.007,0,14.722
0.293,0.07218,0.0062006,-0.039139,10.007,0,14.722
0.294,0.072172,0.006201,-0.039273,10.007,0,14.722
0.295,0.072165,0.0062016,-0.039406,10.007,0,14.722
0.296,0.072158,0.0062022,-0.03954,10.008,0,14.722
0.297,0.072153,0.0062029,-0.039674,10.008,0,14.722
0.298,0.072149,0.0062037,-0.039808,10.008,0,14.722
0.299,0.072145,0.0062045,-0.039942,10.008,0,14.722
0.3,0.072143,0.0062053,-0.040076,10.009,0,14.722
0.301,0.072141,0.0062062,-0.04021,10.009,0,14.722
0.302,0.072141,0.006207,-0.040344,10.009,0,14.722
0.303,0.072141,0.0062078,-0.040478,10.01,0,14.722
0.304,0.072142,0.0062086,-0.040612,10.01,0,14.722
0.305,0.072144,0.0062094,-0.040746,10.01,0,14.722
0.306,0.072147,0.0062101,-0.04088,10.01,0,14.722
0.307,0.07215,0.0062108,-0.041013,10.011,0,14.722
0.308,0.072154,0.0062114,-0.041147,10.011,0,14.722
0.309,0.072158,0.0062119,-0.041281,10.011,0,14.722
0.31,0.072162,0.0062124,-0.041415,10.011,0,14.722
0.311,0.072167,0.0062128,-0.041549,10.012,0,14.722
0.312,0.072171,0.0062132,-0.041683,10.012,0,14.722
0.313,0.072176,0.0062134,-0.041817,10.012,0,14.722
0.314,0.07218,0.0062137,-0.041951,10.012,0,14.722
0.315,0.072185,0.0062138,-0.042085,10.013,0,14.722
0.316,0.072189,0.0062139,-0.042219,10.013,0,14.722
0.317,0.072193,0.0062139,-0.042353,10.013,0,14.722
0.318,0.072196,0.0062139,-0.042487,10.013,0,14.722
0.319,0.072199,0.0062138,-0.042621,10.014,0,14.722
0.32,0.072202,0.0062137,-0.042755,10.014,0,14.722
0.321,0.072204,0.0062135,-0.042889,10.014,0,14.722
0.322,0.072205,0.0062133,-0.043023,10.014,0,14.722
0.323,0.072206,0.0062132,-0.043157,10.015,0,14.722
0.324,0.072207,0.006213,-0.043291,10.015,0,14.722
0.325,0.072207,0.0062128,-0.043425,10.015,0,14.722
0.326,0.072207,0.0062126,-0.043559,10.015,0,14.722
0.327,0.072206,0.0062124,-0.043693,10.016,0,14.722
0.328,0.072205,0.0062122,-0.043827,10.016,0,14.722
0.329,0.072203,0.0062121,-0.043961,10.016,0,14.722
0.33,0.072201,0.0062119,-0.044095,10.017,0,14.722
0.331,0.072199,0.0062119,-0.044229,10.017,0,14.722
0.332,0.072197,0.0062118,-0.044363,10.017,0,14.722
0.333,0.072194,0.0062118,-0.044497,10.017,0,14.722
0.334,0.072192,0.0062118,-0.044631,10.018,0,14.722
0.335,0.072189,0.0062118,-0.044765,10.018,0,14.722
0.336,0.072187,0.0062119,-0.044899,10.018,0,14.722
0.337,0.072184,0.006212,-0.045033,10.018,0,14.722
0.338,0.072181,0.0062122,-0.045167,10.019,0,14.722
0.339,0.072179,0.0062124,-0.045301,10.019,0,14.722
0.34,0.072177,0.0062126,-0.045435,10.019,0,14.722
0.341,0.072175,0.0062129,-0.045569,10.019,0,14.722
0.342,0.072173,0.0062132,-0.045703,10.02,0,14.722
0.343,0.072171,0.0062135,-0.045837,10.02,0,14.722
0.344,0.07217,0.0062138,-0.045971,10.02,0,14.722
0.345,0.072168,0.0062141,-0.046106,10.02,0,14.722
0.346,0.072167,0.0062144,-0.04624,10.021,0,14.722
0.347,0.072167,0.0062148,-0.046374,10.021,0,14.722
0.348,0.072166,0.0062151,-0.046508,10.021,0,14.722
0.349,0.072166,0.0062155,-0.046642,10.021,0,14.722
0.35,0.072166,0.0062158,-0.046776,10.022,0,14.722
0.351,0.072166,0.0062162,-0.04691,10.022,0,14.722
0.352,0.072167,0.0062165,-0.047044,10.022,0,14.722
0.353,0.072167,0.0062168,-0.047178,10.022,0,14.722
0.354,0.072168,0.0062171,-0.047312,10.023,0,14.722
0.355,0.072169,0.0062174,-0.047446,10.023,0,14.722
0.356,0.07217,0.0062177,-0.047581,10.023,0,14.722
0.357,0.072171,0.0062179,-0.047715,10.023,0,14.722
0.358,0.072172,0.0062181,-0.047849,10.024,0,14.722
0.359,0.072173,0.0062184,-0.047983,10.024,0,14.722
0.36,0.072174,0.0062185,-0.048117,10.024,0,14.722
0.361,0.072175,0.0062187,-0.048251,10.025,0,14.722
0.362,0.072176,0.0062189,-0.048385,10.025,0,14.722
0.363,0.072177,0.006219,-0.048519,10.025,0,14.722
0.364,0.072177,0.0062191,-0.048653,10.025,0,14.722
0.365,0.072178,0.0062192,-0.048788,10.026,0,14.722
0.366,0.072179,0.0062193,-0.048922,10.026,0,14.722
0.367,0.072179,0.0062194,-0.049056,10.026,0,14.722
0.368,0.072179,0.0062195,-0.04919,10.026,0,14.722
0.369,0.072179,0.0062195,-0.049324,10.027,0,14.722
0.37,0.072179,0.0062196,-0.049458,10.027,0,14.722
0.371,0.072179,0.0062197,-0.049592,10.027,0,14.722
0.372,0.072179,0.0062197,-0.049727,10.027,0,14.722
0.373,0.072179,0.0062198,-0.049861,10.028,0,14.722
0.374,0.072178,0.0062199,-0.049995,10.028,0,14.722
0.375,0.072178,0.0062199,-0.050129,10.028,0,14.722
0.376,0.072177,0.00622,-0.050263,10.028,0,14.722
0.377,0.072176,0.0062201,-0.050397,10.029,0,14.722
0.378,0.072176,0.0062202,-0.050532,10.029,0,14.722
0.379,0.072175,0.0062203,-0.050666,10.029,0,14.722
0.38,0.072174,0.0062204,-0.0508,10.029,0,14.722
0.381,0.072173,0.0062205,-0.050934,10.03,0,14.722
0.382,0.072172,0.0062207,-0.051068,10.03,0,14.722
0.383,0.072171,0.0062208,-0.051203,10.03,0,14.722
0.384,0.07217,0.0062209,-0.051337,10.03,0,14.722
0.385,0.07217,0.0062211,-0.051471,10.031,0,14.722
0.386,0.072169,0.0062213,-0.051605,10.031,0,14.722
0.387,0.072168,0.0062215,-0.051739,10.031,0,14.722
0.388,0.072167,0.0062216,-0.051874,10.032,0,14.722
0.389,0.072167,0.0062218,-0.052008,10.032,0,14.722
0.39,0.072166,0.006222,-0.052142,10.032,0,14.722
0.391,0.072166,0.0062222,-0.052276,10.032,0,14.722
0.392,0.072165,0.0062224,-0.052411,10.033,0,14.722
